100 499 3 3
25 39 21427 56
25 24 33731 117
25 28 11972 207
25 18 152291 210
25 32 42737 369
25 78 74316 39
25 53 63291 229
25 67 5829 54
25 79 3558 1393
25 91 9092 1165
25 86 18921 91
25 12 10236 105
25 92 36323 101
25 41 26207 97
25 7 9929 278
25 43 28816 84
25 71 53774 74
25 76 11847 26
25 4 30439 144
25 97 35839 92
25 85 107787 58
25 90 107256 494
25 68 4784 23
25 62 15141 44
25 9 84368 23
25 13 39235 388
25 64 42093 468
25 20 14275 93
25 59 2121 738
25 15 11034 161
25 38 16941 636
25 44 18535 117
25 58 41579 142
25 16 35645 87
25 70 21699 208
25 30 11879 38
25 61 14431 179
25 46 10899 121
25 60 78837 105
25 29 30612 66
25 74 3496 224
25 50 11131 131
25 93 130782 923
25 19 27376 44
25 95 6177 97
25 21 18070 233
25 54 51889 213
25 1 41886 289
25 55 91429 20
25 81 60264 42
25 23 50198 87
25 88 10760 555
25 77 65837 65
25 5 20733 391
25 14 45892 2276
25 22 84262 579
25 80 23237 126
25 37 18576 249
25 94 7854 163
25 51 7397 111
25 82 40822 58
25 42 12954 287
25 17 48560 97
25 27 18875 199
25 84 52945 306
25 36 13028 85
25 75 29481 530
25 2 16881 369
25 34 30215 48
25 69 88258 685
25 45 51130 25
25 8 21919 137
25 3 22773 319
25 87 123227 281
25 48 101222 435
25 73 19041 263
25 31 28403 106
25 52 85460 1616
25 99 35717 2127
25 11 19702 371
25 33 18227 41
25 40 2924 291
25 96 99436 113
25 98 72660 214
25 65 135361 618
25 66 4286 204
25 6 14132 252
25 26 61021 309
25 100 13199 22
25 49 18407 252
25 56 36688 217
25 57 9380 76
25 83 28128 63
25 47 21828 53
25 35 49456 49
25 89 14817 975
25 10 35404 71
25 63 12089 327
25 72 43501 74
59 24 3293 130
31 40 26929 962
84 89 22513 366
70 80 19755 273
63 33 10067 35
81 9 69590 103
64 98 42317 1155
40 76 18606 266
37 97 5162 58
99 53 96281 450
76 27 15406 641
45 86 46676 94
35 77 6329 122
96 74 54332 49
66 40 83366 78
83 33 39380 37
53 13 5542 146
31 83 16118 556
49 44 16326 297
89 14 23274 583
91 52 84191 207
17 59 10171 71
38 85 22374 68
5 4 17579 54
81 23 42212 120
92 69 40575 162
65 47 22840 1662
20 97 8864 24
12 7 8996 292
5 48 20198 52
99 65 55302 41
92 38 5218 1339
22 88 20392 168
13 61 25164 98
97 89 14865 77
29 39 13696 851
51 35 18962 40
33 14 61187 183
42 54 11338 192
51 12 5505 86
1 16 15843 243
19 77 194185 58
28 93 39434 159
83 36 10033 129
71 45 14751 48
63 48 20122 187
18 96 47012 96
79 20 21115 95
11 36 8254 173
12 60 15720 47
4 29 32868 436
90 73 24542 183
77 31 36404 1211
50 89 85249 678
1 88 47990 555
93 51 50809 78
65 33 41800 408
31 38 11747 91
69 61 6021 25
89 39 7237 290
23 97 47927 97
72 85 47492 22
83 87 30613 77
35 43 8380 66
68 91 14783 239
65 58 71143 44
94 70 22291 475
57 90 94018 225
97 34 86096 277
90 65 30096 18
9 34 120334 280
32 51 46157 78
1 69 129254 423
40 39 11826 38
58 57 35796 1148
3 73 20879 146
81 26 7793 31
58 16 6195 213
87 8 38887 214
83 2 17537 289
97 38 16155 748
32 76 3774 121
61 51 92932 106
65 37 37042 628
74 65 80105 344
78 33 43461 795
58 10 45721 172
20 99 18061 383
39 100 30779 846
71 88 21118 57
51 95 47169 28
78 38 11163 95
52 86 10405 126
21 80 48289 276
27 92 36917 305
28 38 5428 33
99 24 9080 316
21 76 48356 63
21 60 137110 152
40 4 27205 137
40 49 12221 323
80 21 31321 655
11 95 17461 188
39 15 31833 107
21 19 52375 74
64 90 20942 143
73 75 15799 840
44 72 169412 194
53 49 39044 57
47 22 80196 324
59 85 76396 195
35 18 35138 138
9 22 67448 562
65 90 8234 116
34 13 10102 515
3 42 18766 210
68 28 57111 101
18 8 83448 17
76 36 21932 563
78 90 109453 284
96 25 7499 37
6 68 3656 44
69 74 33981 382
71 86 88205 82
61 50 24298 290
11 80 5583 220
68 16 22670 681
7 31 14907 48
55 45 37341 270
88 30 101561 34
63 80 34745 930
46 94 4257 130
58 76 104904 93
37 69 30542 57
43 48 80435 79
24 93 4518 411
11 70 16127 90
53 23 50826 118
64 21 69091 77
91 7 3514 137
62 95 20394 192
81 61 76665 49
37 57 11848 86
100 40 32404 106
56 84 85000 78
51 7 3309 639
31 75 15725 86
80 17 21673 202
13 56 58949 1204
72 88 8607 34
72 77 19269 268
4 47 75759 163
79 33 21762 83
45 79 13148 36
33 10 6321 241
28 6 50205 477
61 17 47880 144
22 89 19608 750
86 84 26781 638
52 28 22727 70
73 47 4110 167
91 38 99753 106
24 53 36455 167
69 11 12067 34
78 35 28947 165
75 48 178141 299
44 65 17805 142
85 59 17940 415
12 27 58886 130
32 49 8836 105
41 48 4776 164
71 96 66131 64
53 7 55157 58
54 99 12061 79
90 66 265458 88
17 87 46300 136
23 99 22264 123
91 63 17790 213
78 1 65866 151
35 27 42613 117
17 8 128664 335
9 33 65811 292
55 42 129204 65
43 68 8880 135
1 51 46392 26
32 15 4706 141
83 37 45568 658
7 6 25092 30
78 67 15301 116
73 59 26020 17
6 33 16227 255
54 89 33310 258
54 5 15573 524
95 96 5886 164
92 50 39545 115
67 66 51574 16
41 76 69278 204
32 79 25546 298
18 33 93888 253
15 5 33517 60
77 21 11417 201
78 40 9497 22
96 36 10572 315
77 54 43631 339
80 7 73027 63
7 96 13983 141
97 76 29697 147
44 32 16580 258
73 7 14058 786
97 52 146826 43
79 70 42023 20
71 81 7952 302
4 27 35012 123
4 42 95610 226
69 16 126450 234
53 80 5861 440
39 26 9264 1680
91 90 74406 45
47 49 8843 168
79 58 17398 104
13 42 7789 46
88 15 45219 38
93 74 59701 562
70 84 7506 248
71 46 9891 52
14 88 40727 91
47 90 8410 224
40 48 18647 102
49 18 15167 307
100 76 11588 94
33 23 102473 30
80 94 90583 215
62 59 85505 93
45 38 72794 166
91 85 28802 288
47 9 17780 191
91 48 34707 258
12 65 37743 3469
95 29 6047 37
10 72 51509 73
2 83 20618 98
100 18 61165 182
58 62 51554 114
9 19 40640 245
38 76 26047 168
39 60 8033 900
74 47 49843 43
96 35 55198 353
88 66 7175 100
24 45 15053 84
92 12 26309 144
32 69 21395 879
38 22 33277 187
15 86 69874 745
84 83 9748 48
35 53 39635 33
79 11 61685 28
18 11 130851 73
26 31 11820 147
16 8 11019 25
24 90 18110 39
39 68 82840 517
15 60 22769 68
70 11 55285 208
84 1 14167 58
59 48 45848 72
93 96 7183 477
61 63 45630 303
66 92 9412 478
16 79 10395 38
30 40 139062 151
33 40 10608 158
40 35 37607 85
88 82 19748 809
68 41 6710 120
28 9 6386 219
88 36 8810 58
29 3 28708 171
33 32 19235 171
68 45 12839 341
52 69 47743 194
38 44 15944 348
41 68 19038 335
40 78 142081 61
83 14 1481 77
53 73 17454 161
89 70 96590 155
22 64 16746 232
20 87 39654 50
39 1 24399 56
44 27 38999 197
55 67 102619 1433
53 8 17927 79
90 37 11095 165
15 64 63956 113
33 38 57709 341
94 53 16861 375
65 23 5163 483
62 12 36276 45
57 74 94616 157
96 41 15806 20
50 30 17838 120
77 23 18996 58
29 62 89872 719
40 22 47231 210
6 9 82675 204
100 20 33502 1709
27 83 11458 66
95 69 23435 54
20 80 161380 141
13 6 13664 27
23 1 5100 58
44 91 25841 459
8 2 19452 246
62 19 63973 120
62 9 47499 51
9 11 28119 92
81 24 146426 319
15 3 17068 157
45 83 16550 55
54 67 5675 1058
81 60 23074 111
65 1 30238 505
68 19 20199 27
18 43 11749 287
52 65 43333 800
8 46 12685 455
39 70 14081 133
58 19 30071 52
72 12 174962 71
64 66 5961 319
34 64 26181 47
54 47 25750 75
47 41 17016 164
68 89 58523 313
13 81 39647 107
8 100 30146 157
68 25 24512 82
28 99 49440 208
6 27 67451 114
91 64 19695 219
60 74 85439 111
85 73 6687 55
22 82 14362 108
6 2 21950 95
4 44 9461 157
99 71 59989 201
54 7 97947 76
55 91 120969 259
83 29 10496 68
24 70 45298 341
92 45 6408 227
75 54 12486 191
72 41 13472 33
100 43 9211 445
24 1 18371 243
11 96 14020 245
49 32 204693 703
41 2 33200 548
89 79 8394 286
57 78 19217 336
43 38 10544 103
47 74 17491 38
20 57 28329 27
72 95 33344 268
53 79 15403 514
53 17 38154 37
22 72 42152 219
59 40 48039 148
85 71 15350 526
76 43 4095 667
44 87 85964 321
95 21 17262 441
63 19 39249 298
29 100 10660 293
77 60 10396 264
24 71 26344 52
71 32 192762 188
88 91 53224 116
82 52 5751 176
30 48 11182 131
5 22 232199 61
75 1 7673 103
56 41 4301 314
51 84 9615 224
48 74 201646 197
37 72 56891 53
41 70 7545 30
62 92 12559 33
80 3 11620 60
28 16 15650 7
14 50 12215 195
67 69 32134 155
100 17 13816 160
61 39 26755 212
72 47 213444 132
1 8 2673 1321
32 87 16329 106
82 97 3035 91
95 34 29987 457
25 693
53 243
91 96
48 443
38 252
76 56

17589328
